PE IR                   IGRAMM      ASCII       PEDS        1.60        
  -1
~SP.SP
26/06/23
09:06:01.00
26/06/23
09:06:01.00
Praktikum

1000.000000
1









SPECTRUM 100,CPU32 MAIN 00.02.8200 12-DECEMBER-2006 10:00:00
CSI TGS
MIR

77801
0.200000

0.000000
STARK
EINKANAL
IGRAMM
SELF
PROBENHALTER
DOUBLE

COMBINED


0


#HDR
-1
-1
#GR
PUNKTE
EGY
0.00002384185791015625
0.0
-1000.000000
1.000000
2001
8
0.055959
-0.085299
#DATA
-1000.000000	0.000073  
-999.000000	 -0.000344 
-998.000000	 -0.000719 
-997.000000	 -0.000557 
-996.000000	 -0.000040 
-995.000000	 0.000236  
-994.000000	 0.000256  
-993.000000	 0.000469  
-992.000000	 0.000653  
-991.000000	 0.000280  
-990.000000	 -0.000427 
-989.000000	 -0.000704 
-988.000000	 -0.000458 
-987.000000	 -0.000174 
-986.000000	 -0.000097 
-985.000000	 0.000205  
-984.000000	 0.000731  
-983.000000	 0.000760  
-982.000000	 0.000151  
-981.000000	 -0.000391 
-980.000000	 -0.000441 
-979.000000	 -0.000391 
-978.000000	 -0.000459 
-977.000000	 -0.000332 
-976.000000	 0.000196  
-975.000000	 0.000628  
-974.000000	 0.000517  
-973.000000	 0.000229  
-972.000000	 0.000153  
-971.000000	 -0.000012 
-970.000000	 -0.000435 
-969.000000	 -0.000690 
-968.000000	 -0.000433 
-967.000000	 0.000057  
-966.000000	 0.000245  
-965.000000	 0.000276  
-964.000000	 0.000472  
-963.000000	 0.000532  
-962.000000	 0.000109  
-961.000000	 -0.000389 
-960.000000	 -0.000438 
-959.000000	 -0.000211 
-958.000000	 -0.000159 
-957.000000	 -0.000198 
-956.000000	 0.000066  
-955.000000	 0.000437  
-954.000000	 0.000367  
-953.000000	 0.000032  
-952.000000	 -0.000003 
-951.000000	 0.000116  
-950.000000	 -0.000086 
-949.000000	 -0.000459 
-948.000000	 -0.000415 
-947.000000	 0.000006  
-946.000000	 0.000189  
-945.000000	 -0.000011 
-944.000000	 0.000016  
-943.000000	 0.000366  
-942.000000	 0.000328  
-941.000000	 -0.000131 
-940.000000	 -0.000326 
-939.000000	 0.000002  
-938.000000	 0.000206  
-937.000000	 -0.000072 
-936.000000	 -0.000326 
-935.000000	 -0.000068 
-934.000000	 0.000219  
-933.000000	 0.000023  
-932.000000	 -0.000155 
-931.000000	 0.000155  
-930.000000	 0.000455  
-929.000000	 0.000224  
-928.000000	 -0.000212 
-927.000000	 -0.000244 
-926.000000	 -0.000019 
-925.000000	 -0.000136 
-924.000000	 -0.000424 
-923.000000	 -0.000260 
-922.000000	 0.000221  
-921.000000	 0.000367  
-920.000000	 0.000184  
-919.000000	 0.000165  
-918.000000	 0.000306  
-917.000000	 0.000145  
-916.000000	 -0.000322 
-915.000000	 -0.000568 
-914.000000	 -0.000355 
-913.000000	 -0.000094 
-912.000000	 0.000023  
-911.000000	 0.000282  
-910.000000	 0.000592  
-909.000000	 0.000546  
-908.000000	 0.000106  
-907.000000	 -0.000268 
-906.000000	 -0.000363 
-905.000000	 -0.000418 
-904.000000	 -0.000521 
-903.000000	 -0.000353 
-902.000000	 0.000133  
-901.000000	 0.000467  
-900.000000	 0.000451  
-899.000000	 0.000355  
-898.000000	 0.000351  
-897.000000	 0.000125  
-896.000000	 -0.000379 
-895.000000	 -0.000693 
-894.000000	 -0.000481 
-893.000000	 -0.000119 
-892.000000	 0.000059  
-891.000000	 0.000263  
-890.000000	 0.000615  
-889.000000	 0.000691  
-888.000000	 0.000214  
-887.000000	 -0.000353 
-886.000000	 -0.000468 
-885.000000	 -0.000313 
-884.000000	 -0.000348 
-883.000000	 -0.000352 
-882.000000	 0.000064  
-881.000000	 0.000552  
-880.000000	 0.000548  
-879.000000	 0.000181  
-878.000000	 -0.000031 
-877.000000	 0.000000  
-876.000000	 -0.000160 
-875.000000	 -0.000544 
-874.000000	 -0.000520 
-873.000000	 0.000014  
-872.000000	 0.000383  
-871.000000	 0.000279  
-870.000000	 0.000139  
-869.000000	 0.000221  
-868.000000	 0.000197  
-867.000000	 -0.000151 
-866.000000	 -0.000440 
-865.000000	 -0.000191 
-864.000000	 0.000215  
-863.000000	 0.000152  
-862.000000	 -0.000122 
-861.000000	 -0.000097 
-860.000000	 0.000103  
-859.000000	 0.000072  
-858.000000	 -0.000144 
-857.000000	 -0.000119 
-856.000000	 0.000220  
-855.000000	 0.000347  
-854.000000	 0.000005  
-853.000000	 -0.000233 
-852.000000	 -0.000107 
-851.000000	 -0.000026 
-850.000000	 -0.000192 
-849.000000	 -0.000276 
-848.000000	 -0.000004 
-847.000000	 0.000341  
-846.000000	 0.000329  
-845.000000	 0.000052  
-844.000000	 0.000023  
-843.000000	 0.000087  
-842.000000	 -0.000143 
-841.000000	 -0.000452 
-840.000000	 -0.000351 
-839.000000	 0.000093  
-838.000000	 0.000377  
-837.000000	 0.000262  
-836.000000	 0.000083  
-835.000000	 0.000111  
-834.000000	 0.000045  
-833.000000	 -0.000282 
-832.000000	 -0.000419 
-831.000000	 -0.000121 
-830.000000	 0.000217  
-829.000000	 0.000230  
-828.000000	 0.000041  
-827.000000	 -0.000009 
-826.000000	 0.000070  
-825.000000	 -0.000065 
-824.000000	 -0.000302 
-823.000000	 -0.000181 
-822.000000	 0.000213  
-821.000000	 0.000362  
-820.000000	 0.000204  
-819.000000	 0.000094  
-818.000000	 0.000113  
-817.000000	 -0.000005 
-816.000000	 -0.000366 
-815.000000	 -0.000550 
-814.000000	 -0.000269 
-813.000000	 0.000147  
-812.000000	 0.000285  
-811.000000	 0.000295  
-810.000000	 0.000399  
-809.000000	 0.000364  
-808.000000	 -0.000059 
-807.000000	 -0.000547 
-806.000000	 -0.000614 
-805.000000	 -0.000266 
-804.000000	 0.000021  
-803.000000	 0.000060  
-802.000000	 0.000171  
-801.000000	 0.000443  
-800.000000	 0.000494  
-799.000000	 0.000111  
-798.000000	 -0.000257 
-797.000000	 -0.000293 
-796.000000	 -0.000146 
-795.000000	 -0.000148 
-794.000000	 -0.000266 
-793.000000	 -0.000114 
-792.000000	 0.000264  
-791.000000	 0.000428  
-790.000000	 0.000212  
-789.000000	 0.000014  
-788.000000	 -0.000001 
-787.000000	 0.000004  
-786.000000	 -0.000179 
-785.000000	 -0.000394 
-784.000000	 -0.000292 
-783.000000	 0.000086  
-782.000000	 0.000221  
-781.000000	 0.000014  
-780.000000	 -0.000008 
-779.000000	 0.000266  
-778.000000	 0.000425  
-777.000000	 0.000140  
-776.000000	 -0.000301 
-775.000000	 -0.000310 
-774.000000	 0.000005  
-773.000000	 -0.000015 
-772.000000	 -0.000320 
-771.000000	 -0.000182 
-770.000000	 0.000334  
-769.000000	 0.000506  
-768.000000	 0.000056  
-767.000000	 -0.000342 
-766.000000	 -0.000111 
-765.000000	 0.000253  
-764.000000	 -0.000039 
-763.000000	 -0.000467 
-762.000000	 -0.000168 
-761.000000	 0.000375  
-760.000000	 0.000288  
-759.000000	 -0.000239 
-758.000000	 -0.000284 
-757.000000	 0.000242  
-756.000000	 0.000410  
-755.000000	 -0.000161 
-754.000000	 -0.000476 
-753.000000	 0.000007  
-752.000000	 0.000384  
-751.000000	 0.000029  
-750.000000	 -0.000350 
-749.000000	 -0.000067 
-748.000000	 0.000395  
-747.000000	 0.000240  
-746.000000	 -0.000264 
-745.000000	 -0.000196 
-744.000000	 0.000317  
-743.000000	 0.000305  
-742.000000	 -0.000250 
-741.000000	 -0.000424 
-740.000000	 -0.000044 
-739.000000	 0.000224  
-738.000000	 0.000029  
-737.000000	 -0.000141 
-736.000000	 0.000112  
-735.000000	 0.000359  
-734.000000	 0.000098  
-733.000000	 -0.000321 
-732.000000	 -0.000296 
-731.000000	 -0.000033 
-730.000000	 0.000024  
-729.000000	 -0.000057 
-728.000000	 0.000009  
-727.000000	 0.000228  
-726.000000	 0.000264  
-725.000000	 0.000028  
-724.000000	 -0.000168 
-723.000000	 -0.000144 
-722.000000	 -0.000078 
-721.000000	 -0.000137 
-720.000000	 -0.000146 
-719.000000	 0.000000  
-718.000000	 0.000227  
-717.000000	 0.000327  
-716.000000	 0.000221  
-715.000000	 -0.000012 
-714.000000	 -0.000142 
-713.000000	 -0.000192 
-712.000000	 -0.000227 
-711.000000	 -0.000235 
-710.000000	 -0.000124 
-709.000000	 0.000095  
-708.000000	 0.000276  
-707.000000	 0.000247  
-706.000000	 0.000129  
-705.000000	 0.000085  
-704.000000	 0.000050  
-703.000000	 -0.000064 
-702.000000	 -0.000180 
-701.000000	 -0.000127 
-700.000000	 -0.000000 
-699.000000	 0.000037  
-698.000000	 -0.000000 
-697.000000	 0.000039  
-696.000000	 0.000156  
-695.000000	 0.000142  
-694.000000	 -0.000036 
-693.000000	 -0.000158 
-692.000000	 -0.000116 
-691.000000	 -0.000088 
-690.000000	 -0.000107 
-689.000000	 -0.000079 
-688.000000	 0.000012  
-687.000000	 0.000107  
-686.000000	 0.000097  
-685.000000	 0.000091  
-684.000000	 0.000103  
-683.000000	 0.000065  
-682.000000	 -0.000078 
-681.000000	 -0.000176 
-680.000000	 -0.000145 
-679.000000	 -0.000085 
-678.000000	 -0.000021 
-677.000000	 0.000095  
-676.000000	 0.000230  
-675.000000	 0.000213  
-674.000000	 0.000076  
-673.000000	 -0.000103 
-672.000000	 -0.000204 
-671.000000	 -0.000229 
-670.000000	 -0.000168 
-669.000000	 0.000016  
-668.000000	 0.000230  
-667.000000	 0.000296  
-666.000000	 0.000171  
-665.000000	 0.000027  
-664.000000	 -0.000121 
-663.000000	 -0.000230 
-662.000000	 -0.000227 
-661.000000	 -0.000059 
-660.000000	 0.000143  
-659.000000	 0.000261  
-658.000000	 0.000247  
-657.000000	 0.000182  
-656.000000	 0.000021  
-655.000000	 -0.000208 
-654.000000	 -0.000337 
-653.000000	 -0.000225 
-652.000000	 -0.000012 
-651.000000	 0.000102  
-650.000000	 0.000157  
-649.000000	 0.000209  
-648.000000	 0.000156  
-647.000000	 -0.000105 
-646.000000	 -0.000340 
-645.000000	 -0.000267 
-644.000000	 -0.000000 
-643.000000	 0.000144  
-642.000000	 0.000150  
-641.000000	 0.000219  
-640.000000	 0.000259  
-639.000000	 -0.000011 
-638.000000	 -0.000427 
-637.000000	 -0.000494 
-636.000000	 -0.000160 
-635.000000	 0.000105  
-634.000000	 0.000126  
-633.000000	 0.000178  
-632.000000	 0.000349  
-631.000000	 0.000293  
-630.000000	 -0.000095 
-629.000000	 -0.000380 
-628.000000	 -0.000201 
-627.000000	 0.000084  
-626.000000	 0.000025  
-625.000000	 -0.000065 
-624.000000	 0.000128  
-623.000000	 0.000358  
-622.000000	 0.000198  
-621.000000	 -0.000167 
-620.000000	 -0.000219 
-619.000000	 -0.000002 
-618.000000	 0.000014  
-617.000000	 -0.000197 
-616.000000	 -0.000171 
-615.000000	 0.000101  
-614.000000	 0.000211  
-613.000000	 0.000034  
-612.000000	 -0.000090 
-611.000000	 0.000040  
-610.000000	 0.000195  
-609.000000	 0.000067  
-608.000000	 -0.000082 
-607.000000	 -0.000019 
-606.000000	 0.000066  
-605.000000	 -0.000050 
-604.000000	 -0.000208 
-603.000000	 -0.000163 
-602.000000	 0.000052  
-601.000000	 0.000168  
-600.000000	 0.000055  
-599.000000	 -0.000051 
-598.000000	 -0.000033 
-597.000000	 0.000002  
-596.000000	 -0.000041 
-595.000000	 -0.000064 
-594.000000	 -0.000007 
-593.000000	 0.000076  
-592.000000	 0.000065  
-591.000000	 -0.000048 
-590.000000	 -0.000108 
-589.000000	 -0.000025 
-588.000000	 0.000063  
-587.000000	 0.000056  
-586.000000	 0.000030  
-585.000000	 0.000065  
-584.000000	 0.000136  
-583.000000	 0.000079  
-582.000000	 -0.000063 
-581.000000	 -0.000102 
-580.000000	 -0.000030 
-579.000000	 -0.000049 
-578.000000	 -0.000181 
-577.000000	 -0.000224 
-576.000000	 -0.000032 
-575.000000	 0.000182  
-574.000000	 0.000184  
-573.000000	 0.000076  
-572.000000	 0.000083  
-571.000000	 0.000125  
-570.000000	 -0.000005 
-569.000000	 -0.000203 
-568.000000	 -0.000194 
-567.000000	 0.000015  
-566.000000	 0.000101  
-565.000000	 -0.000033 
-564.000000	 -0.000066 
-563.000000	 0.000124  
-562.000000	 0.000274  
-561.000000	 0.000144  
-560.000000	 -0.000124 
-559.000000	 -0.000205 
-558.000000	 -0.000131 
-557.000000	 -0.000156 
-556.000000	 -0.000222 
-555.000000	 -0.000058 
-554.000000	 0.000266  
-553.000000	 0.000410  
-552.000000	 0.000232  
-551.000000	 -0.000024 
-550.000000	 -0.000064 
-549.000000	 -0.000018 
-548.000000	 -0.000134 
-547.000000	 -0.000264 
-546.000000	 -0.000191 
-545.000000	 0.000051  
-544.000000	 0.000169  
-543.000000	 0.000040  
-542.000000	 -0.000048 
-541.000000	 0.000106  
-540.000000	 0.000227  
-539.000000	 0.000032  
-538.000000	 -0.000237 
-537.000000	 -0.000220 
-536.000000	 0.000068  
-535.000000	 0.000207  
-534.000000	 0.000058  
-533.000000	 -0.000085 
-532.000000	 -0.000000 
-531.000000	 0.000010  
-530.000000	 -0.000183 
-529.000000	 -0.000220 
-528.000000	 0.000088  
-527.000000	 0.000359  
-526.000000	 0.000237  
-525.000000	 -0.000118 
-524.000000	 -0.000189 
-523.000000	 -0.000048 
-522.000000	 -0.000117 
-521.000000	 -0.000316 
-520.000000	 -0.000165 
-519.000000	 0.000238  
-518.000000	 0.000403  
-517.000000	 0.000182  
-516.000000	 -0.000012 
-515.000000	 0.000106  
-514.000000	 0.000140  
-513.000000	 -0.000200 
-512.000000	 -0.000480 
-511.000000	 -0.000311 
-510.000000	 0.000039  
-509.000000	 0.000161  
-508.000000	 0.000193  
-507.000000	 0.000362  
-506.000000	 0.000465  
-505.000000	 0.000119  
-504.000000	 -0.000439 
-503.000000	 -0.000559 
-502.000000	 -0.000226 
-501.000000	 0.000038  
-500.000000	 -0.000002 
-499.000000	 -0.000004 
-498.000000	 0.000181  
-497.000000	 0.000291  
-496.000000	 0.000106  
-495.000000	 -0.000101 
-494.000000	 -0.000035 
-493.000000	 0.000076  
-492.000000	 -0.000038 
-491.000000	 -0.000190 
-490.000000	 -0.000123 
-489.000000	 0.000063  
-488.000000	 0.000129  
-487.000000	 0.000025  
-486.000000	 -0.000000 
-485.000000	 0.000064  
-484.000000	 -0.000017 
-483.000000	 -0.000171 
-482.000000	 -0.000139 
-481.000000	 0.000115  
-480.000000	 0.000264  
-479.000000	 0.000123  
-478.000000	 -0.000142 
-477.000000	 -0.000206 
-476.000000	 -0.000080 
-475.000000	 0.000064  
-474.000000	 0.000129  
-473.000000	 0.000158  
-472.000000	 0.000108  
-471.000000	 -0.000020 
-470.000000	 -0.000144 
-469.000000	 -0.000152 
-468.000000	 -0.000040 
-467.000000	 0.000033  
-466.000000	 -0.000002 
-465.000000	 -0.000044 
-464.000000	 -0.000003 
-463.000000	 0.000056  
-462.000000	 0.000090  
-461.000000	 0.000079  
-460.000000	 0.000063  
-459.000000	 0.000022  
-458.000000	 -0.000079 
-457.000000	 -0.000222 
-456.000000	 -0.000246 
-455.000000	 -0.000058 
-454.000000	 0.000168  
-453.000000	 0.000247  
-452.000000	 0.000134  
-451.000000	 -0.000011 
-450.000000	 -0.000086 
-449.000000	 -0.000102 
-448.000000	 -0.000048 
-447.000000	 0.000069  
-446.000000	 0.000129  
-445.000000	 0.000011  
-444.000000	 -0.000172 
-443.000000	 -0.000202 
-442.000000	 -0.000003 
-441.000000	 0.000188  
-440.000000	 0.000174  
-439.000000	 0.000032  
-438.000000	 -0.000033 
-437.000000	 -0.000085 
-436.000000	 -0.000154 
-435.000000	 -0.000123 
-434.000000	 0.000043  
-433.000000	 0.000199  
-432.000000	 0.000178  
-431.000000	 0.000049  
-430.000000	 0.000019  
-429.000000	 0.000076  
-428.000000	 0.000043  
-427.000000	 -0.000069 
-426.000000	 -0.000140 
-425.000000	 -0.000143 
-424.000000	 -0.000191 
-423.000000	 -0.000210 
-422.000000	 -0.000054 
-421.000000	 0.000259  
-420.000000	 0.000420  
-419.000000	 0.000239  
-418.000000	 -0.000082 
-417.000000	 -0.000265 
-416.000000	 -0.000280 
-415.000000	 -0.000158 
-414.000000	 0.000052  
-413.000000	 0.000236  
-412.000000	 0.000259  
-411.000000	 0.000069  
-410.000000	 -0.000114 
-409.000000	 -0.000106 
-408.000000	 0.000019  
-407.000000	 0.000031  
-406.000000	 -0.000049 
-405.000000	 -0.000130 
-404.000000	 -0.000135 
-403.000000	 -0.000050 
-402.000000	 0.000055  
-401.000000	 0.000145  
-400.000000	 0.000210  
-399.000000	 0.000150  
-398.000000	 -0.000015 
-397.000000	 -0.000161 
-396.000000	 -0.000221 
-395.000000	 -0.000160 
-394.000000	 0.000002  
-393.000000	 0.000155  
-392.000000	 0.000147  
-391.000000	 0.000037  
-390.000000	 -0.000059 
-389.000000	 -0.000017 
-388.000000	 0.000104  
-387.000000	 0.000133  
-386.000000	 0.000032  
-385.000000	 -0.000140 
-384.000000	 -0.000293 
-383.000000	 -0.000311 
-382.000000	 -0.000060 
-381.000000	 0.000267  
-380.000000	 0.000416  
-379.000000	 0.000272  
-378.000000	 -0.000009 
-377.000000	 -0.000222 
-376.000000	 -0.000245 
-375.000000	 -0.000164 
-374.000000	 -0.000025 
-373.000000	 0.000147  
-372.000000	 0.000202  
-371.000000	 0.000112  
-370.000000	 -0.000011 
-369.000000	 -0.000085 
-368.000000	 -0.000087 
-367.000000	 -0.000032 
-366.000000	 -0.000030 
-365.000000	 -0.000095 
-364.000000	 -0.000157 
-363.000000	 -0.000126 
-362.000000	 0.000054  
-361.000000	 0.000295  
-360.000000	 0.000345  
-359.000000	 0.000130  
-358.000000	 -0.000125 
-357.000000	 -0.000282 
-356.000000	 -0.000237 
-355.000000	 -0.000010 
-354.000000	 0.000240  
-353.000000	 0.000358  
-352.000000	 0.000205  
-351.000000	 -0.000163 
-350.000000	 -0.000422 
-349.000000	 -0.000351 
-348.000000	 -0.000161 
-347.000000	 0.000010  
-346.000000	 0.000190  
-345.000000	 0.000281  
-344.000000	 0.000204  
-343.000000	 0.000029  
-342.000000	 -0.000088 
-341.000000	 -0.000010 
-340.000000	 0.000086  
-339.000000	 -0.000081 
-338.000000	 -0.000275 
-337.000000	 -0.000225 
-336.000000	 0.000024  
-335.000000	 0.000258  
-334.000000	 0.000387  
-333.000000	 0.000351  
-332.000000	 0.000098  
-331.000000	 -0.000304 
-330.000000	 -0.000628 
-329.000000	 -0.000535 
-328.000000	 -0.000092 
-327.000000	 0.000239  
-326.000000	 0.000338  
-325.000000	 0.000357  
-324.000000	 0.000280  
-323.000000	 0.000078  
-322.000000	 -0.000146 
-321.000000	 -0.000195 
-320.000000	 -0.000059 
-319.000000	 -0.000009 
-318.000000	 -0.000196 
-317.000000	 -0.000290 
-316.000000	 -0.000106 
-315.000000	 0.000183  
-314.000000	 0.000366  
-313.000000	 0.000386  
-312.000000	 0.000205  
-311.000000	 -0.000114 
-310.000000	 -0.000431 
-309.000000	 -0.000471 
-308.000000	 -0.000155 
-307.000000	 0.000167  
-306.000000	 0.000169  
-305.000000	 0.000040  
-304.000000	 0.000020  
-303.000000	 0.000070  
-302.000000	 0.000080  
-301.000000	 0.000103  
-300.000000	 0.000162  
-299.000000	 0.000166  
-298.000000	 -0.000040 
-297.000000	 -0.000307 
-296.000000	 -0.000311 
-295.000000	 -0.000103 
-294.000000	 0.000112  
-293.000000	 0.000206  
-292.000000	 0.000218  
-291.000000	 0.000143  
-290.000000	 -0.000121 
-289.000000	 -0.000370 
-288.000000	 -0.000291 
-287.000000	 0.000078  
-286.000000	 0.000237  
-285.000000	 0.000023  
-284.000000	 -0.000184 
-283.000000	 -0.000057 
-282.000000	 0.000221  
-281.000000	 0.000311  
-280.000000	 0.000228  
-279.000000	 0.000152  
-278.000000	 -0.000013 
-277.000000	 -0.000360 
-276.000000	 -0.000561 
-275.000000	 -0.000302 
-274.000000	 0.000163  
-273.000000	 0.000317  
-272.000000	 0.000129  
-271.000000	 0.000004  
-270.000000	 0.000123  
-269.000000	 0.000130  
-268.000000	 -0.000107 
-267.000000	 -0.000194 
-266.000000	 0.000022  
-265.000000	 0.000150  
-264.000000	 -0.000039 
-263.000000	 -0.000247 
-262.000000	 -0.000051 
-261.000000	 0.000330  
-260.000000	 0.000334  
-259.000000	 0.000033  
-258.000000	 -0.000138 
-257.000000	 -0.000139 
-256.000000	 -0.000253 
-255.000000	 -0.000360 
-254.000000	 -0.000116 
-253.000000	 0.000353  
-252.000000	 0.000469  
-251.000000	 0.000047  
-250.000000	 -0.000273 
-249.000000	 -0.000068 
-248.000000	 0.000233  
-247.000000	 0.000076  
-246.000000	 -0.000215 
-245.000000	 -0.000192 
-244.000000	 0.000039  
-243.000000	 0.000075  
-242.000000	 -0.000008 
-241.000000	 0.000113  
-240.000000	 0.000317  
-239.000000	 0.000127  
-238.000000	 -0.000320 
-237.000000	 -0.000422 
-236.000000	 -0.000141 
-235.000000	 0.000011  
-234.000000	 -0.000106 
-233.000000	 -0.000058 
-232.000000	 0.000275  
-231.000000	 0.000434  
-230.000000	 0.000086  
-229.000000	 -0.000249 
-228.000000	 -0.000106 
-227.000000	 0.000150  
-226.000000	 0.000054  
-225.000000	 -0.000185 
-224.000000	 -0.000119 
-223.000000	 0.000156  
-222.000000	 0.000266  
-221.000000	 0.000170  
-220.000000	 0.000147  
-219.000000	 0.000112  
-218.000000	 -0.000262 
-217.000000	 -0.000651 
-216.000000	 -0.000474 
-215.000000	 0.000136  
-214.000000	 0.000432  
-213.000000	 0.000174  
-212.000000	 -0.000164 
-211.000000	 -0.000067 
-210.000000	 0.000166  
-209.000000	 0.000098  
-208.000000	 -0.000078 
-207.000000	 -0.000015 
-206.000000	 0.000102  
-205.000000	 0.000001  
-204.000000	 -0.000098 
-203.000000	 0.000063  
-202.000000	 0.000283  
-201.000000	 0.000205  
-200.000000	 -0.000143 
-199.000000	 -0.000258 
-198.000000	 -0.000120 
-197.000000	 -0.000139 
-196.000000	 -0.000247 
-195.000000	 -0.000058 
-194.000000	 0.000371  
-193.000000	 0.000476  
-192.000000	 0.000035  
-191.000000	 -0.000418 
-190.000000	 -0.000298 
-189.000000	 0.000153  
-188.000000	 0.000280  
-187.000000	 0.000109  
-186.000000	 -0.000101 
-185.000000	 -0.000249 
-184.000000	 -0.000321 
-183.000000	 -0.000120 
-182.000000	 0.000358  
-181.000000	 0.000665  
-180.000000	 0.000311  
-179.000000	 -0.000387 
-178.000000	 -0.000558 
-177.000000	 -0.000183 
-176.000000	 0.000114  
-175.000000	 0.000087  
-174.000000	 0.000102  
-173.000000	 0.000239  
-172.000000	 0.000203  
-171.000000	 -0.000175 
-170.000000	 -0.000376 
-169.000000	 -0.000051 
-168.000000	 0.000290  
-167.000000	 0.000162  
-166.000000	 -0.000177 
-165.000000	 -0.000313 
-164.000000	 -0.000245 
-163.000000	 -0.000096 
-162.000000	 0.000182  
-161.000000	 0.000589  
-160.000000	 0.000662  
-159.000000	 -0.000044 
-158.000000	 -0.000879 
-157.000000	 -0.000798 
-156.000000	 0.000051  
-155.000000	 0.000647  
-154.000000	 0.000537  
-153.000000	 0.000149  
-152.000000	 -0.000052 
-151.000000	 -0.000185 
-150.000000	 -0.000329 
-149.000000	 -0.000158 
-148.000000	 0.000353  
-147.000000	 0.000488  
-146.000000	 -0.000043 
-145.000000	 -0.000593 
-144.000000	 -0.000504 
-143.000000	 0.000005  
-142.000000	 0.000305  
-141.000000	 0.000332  
-140.000000	 0.000325  
-139.000000	 0.000127  
-138.000000	 -0.000525 
-137.000000	 -0.000995 
-136.000000	 -0.000455 
-135.000000	 0.000651  
-134.000000	 0.001126  
-133.000000	 0.000546  
-132.000000	 -0.000292 
-131.000000	 -0.000575 
-130.000000	 -0.000372 
-129.000000	 -0.000145 
-128.000000	 0.000223  
-127.000000	 0.000592  
-126.000000	 0.000403  
-125.000000	 -0.000365 
-124.000000	 -0.000764 
-123.000000	 -0.000233 
-122.000000	 0.000645  
-121.000000	 0.000805  
-120.000000	 0.000197  
-119.000000	 -0.000419 
-118.000000	 -0.000734 
-117.000000	 -0.000894 
-116.000000	 -0.000629 
-115.000000	 0.000360  
-114.000000	 0.001350  
-113.000000	 0.001315  
-112.000000	 0.000224  
-111.000000	 -0.000755 
-110.000000	 -0.000798 
-109.000000	 -0.000262 
-108.000000	 0.000061  
-107.000000	 0.000122  
-106.000000	 -0.000009 
-105.000000	 -0.000406 
-104.000000	 -0.000771 
-103.000000	 -0.000370 
-102.000000	 0.000791  
-101.000000	 0.001617  
-100.000000	 0.001165  
-99.000000	  -0.000152 
-98.000000	  -0.001181 
-97.000000	  -0.001388 
-96.000000	  -0.000988 
-95.000000	  -0.000163 
-94.000000	  0.000855  
-93.000000	  0.001284  
-92.000000	  0.000679  
-91.000000	  -0.000308 
-90.000000	  -0.000667 
-89.000000	  -0.000242 
-88.000000	  0.000349  
-87.000000	  0.000546  
-86.000000	  0.000293  
-85.000000	  -0.000281 
-84.000000	  -0.000880 
-83.000000	  -0.000747 
-82.000000	  0.000346  
-81.000000	  0.001397  
-80.000000	  0.001168  
-79.000000	  -0.000161 
-78.000000	  -0.001419 
-77.000000	  -0.001739 
-76.000000	  -0.001121 
-75.000000	  0.000086  
-74.000000	  0.001378  
-73.000000	  0.001848  
-72.000000	  0.000841  
-71.000000	  -0.000703 
-70.000000	  -0.001224 
-69.000000	  -0.000580 
-68.000000	  0.000213  
-67.000000	  0.000534  
-66.000000	  0.000555  
-65.000000	  0.000342  
-64.000000	  -0.000212 
-63.000000	  -0.000708 
-62.000000	  -0.000262 
-61.000000	  0.000874  
-60.000000	  0.001166  
-59.000000	  0.000022  
-58.000000	  -0.001491 
-57.000000	  -0.002110 
-56.000000	  -0.001482 
-55.000000	  0.000052  
-54.000000	  0.001725  
-53.000000	  0.002629  
-52.000000	  0.002080  
-51.000000	  0.000294  
-50.000000	  -0.001289 
-49.000000	  -0.001453 
-48.000000	  -0.000527 
-47.000000	  0.000208  
-46.000000	  0.000169  
-45.000000	  -0.000457 
-44.000000	  -0.001115 
-43.000000	  -0.001085 
-42.000000	  -0.000019 
-41.000000	  0.001257  
-40.000000	  0.001621  
-39.000000	  0.001055  
-38.000000	  0.000356  
-37.000000	  -0.000281 
-36.000000	  -0.001052 
-35.000000	  -0.001397 
-34.000000	  -0.000427 
-33.000000	  0.000772  
-32.000000	  0.000215  
-31.000000	  -0.001446 
-30.000000	  -0.001388 
-29.000000	  0.000615  
-28.000000	  0.002278  
-27.000000	  0.002533  
-26.000000	  0.002056  
-25.000000	  0.000868  
-24.000000	  -0.001843 
-23.000000	  -0.004576 
-22.000000	  -0.003808 
-21.000000	  0.000829  
-20.000000	  0.004067  
-19.000000	  0.002540  
-18.000000	  -0.000013 
-17.000000	  -0.000333 
-16.000000	  -0.000813 
-15.000000	  -0.002212 
-14.000000	  -0.002709 
-13.000000	  -0.000262 
-12.000000	  0.004262  
-11.000000	  0.003182  
-10.000000	  -0.001294 
-9.000000	   -0.004087 
-8.000000	   -0.011834 
-7.000000	   -0.019701 
-6.000000	   -0.005897 
-5.000000	   0.021765  
-4.000000	   0.013264  
-3.000000	   0.016023  
-2.000000	   0.055959  
-1.000000	   0.034803  
0.000000	    -0.051430 
1.000000	    -0.085299 
2.000000	    -0.020214 
3.000000	    0.023720  
4.000000	    0.026836  
5.000000	    0.014173  
6.000000	    -0.006394 
7.000000	    -0.011016 
8.000000	    -0.002992 
9.000000	    0.002740  
10.000000	   0.004557  
11.000000	   0.001482  
12.000000	   0.000051  
13.000000	   0.002022  
14.000000	   0.001712  
15.000000	   -0.001448 
16.000000	   -0.003372 
17.000000	   -0.002089 
18.000000	   0.000175  
19.000000	   0.000942  
20.000000	   0.002063  
21.000000	   0.004046  
22.000000	   0.003543  
23.000000	   -0.000192 
24.000000	   -0.003668 
25.000000	   -0.003705 
26.000000	   -0.001301 
27.000000	   0.000521  
28.000000	   0.000816  
29.000000	   0.000847  
30.000000	   0.000559  
31.000000	   -0.000312 
32.000000	   -0.000477 
33.000000	   0.000732  
34.000000	   0.001698  
35.000000	   0.000960  
36.000000	   -0.000860 
37.000000	   -0.001941 
38.000000	   -0.001540 
39.000000	   -0.000599 
40.000000	   0.000183  
41.000000	   0.000729  
42.000000	   0.000767  
43.000000	   0.000277  
44.000000	   -0.000076 
45.000000	   0.000147  
46.000000	   0.000718  
47.000000	   0.001140  
48.000000	   0.001071  
49.000000	   0.000228  
50.000000	   -0.001393 
51.000000	   -0.002756 
52.000000	   -0.002365 
53.000000	   -0.000290 
54.000000	   0.001663  
55.000000	   0.001972  
56.000000	   0.000918  
57.000000	   -0.000243 
58.000000	   -0.000890 
59.000000	   -0.000845 
60.000000	   0.000005  
61.000000	   0.001061  
62.000000	   0.001055  
63.000000	   -0.000101 
64.000000	   -0.001037 
65.000000	   -0.000662 
66.000000	   0.000434  
67.000000	   0.000978  
68.000000	   0.000642  
69.000000	   -0.000031 
70.000000	   -0.000823 
71.000000	   -0.001568 
72.000000	   -0.001437 
73.000000	   -0.000087 
74.000000	   0.001477  
75.000000	   0.001902  
76.000000	   0.001008  
77.000000	   -0.000276 
78.000000	   -0.001081 
79.000000	   -0.001152 
80.000000	   -0.000488 
81.000000	   0.000637  
82.000000	   0.001241  
83.000000	   0.000648  
84.000000	   -0.000453 
85.000000	   -0.000838 
86.000000	   -0.000320 
87.000000	   0.000382  
88.000000	   0.000569  
89.000000	   0.000170  
90.000000	   -0.000579 
91.000000	   -0.001207 
92.000000	   -0.001075 
93.000000	   0.000110  
94.000000	   0.001445  
95.000000	   0.001669  
96.000000	   0.000735  
97.000000	   -0.000385 
98.000000	   -0.001018 
99.000000	   -0.001144 
100.000000	  -0.000763 
101.000000	  0.000087  
102.000000	  0.000850  
103.000000	  0.000723  
104.000000	  -0.000133 
105.000000	  -0.000603 
106.000000	  -0.000097 
107.000000	  0.000637  
108.000000	  0.000798  
109.000000	  0.000409  
110.000000	  -0.000211 
111.000000	  -0.000866 
112.000000	  -0.001221 
113.000000	  -0.000727 
114.000000	  0.000525  
115.000000	  0.001422  
116.000000	  0.000989  
117.000000	  -0.000161 
118.000000	  -0.000763 
119.000000	  -0.000550 
120.000000	  -0.000154 
121.000000	  0.000126  
122.000000	  0.000397  
123.000000	  0.000487  
124.000000	  0.000022  
125.000000	  -0.000646 
126.000000	  -0.000608 
127.000000	  0.000244  
128.000000	  0.000815  
129.000000	  0.000477  
130.000000	  -0.000204 
131.000000	  -0.000612 
132.000000	  -0.000680 
133.000000	  -0.000523 
134.000000	  0.000017  
135.000000	  0.000785  
136.000000	  0.001011  
137.000000	  0.000185  
138.000000	  -0.000815 
139.000000	  -0.000846 
140.000000	  -0.000082 
141.000000	  0.000501  
142.000000	  0.000466  
143.000000	  0.000196  
144.000000	  0.000033  
145.000000	  -0.000160 
146.000000	  -0.000370 
147.000000	  -0.000100 
148.000000	  0.000477  
149.000000	  0.000558  
150.000000	  -0.000026 
151.000000	  -0.000593 
152.000000	  -0.000551 
153.000000	  -0.000128 
154.000000	  0.000170  
155.000000	  0.000331  
156.000000	  0.000537  
157.000000	  0.000394  
158.000000	  -0.000328 
159.000000	  -0.000915 
160.000000	  -0.000603 
161.000000	  0.000238  
162.000000	  0.000671  
163.000000	  0.000370  
164.000000	  -0.000124 
165.000000	  -0.000230 
166.000000	  -0.000140 
167.000000	  -0.000040 
168.000000	  0.000181  
169.000000	  0.000367  
170.000000	  0.000106  
171.000000	  -0.000391 
172.000000	  -0.000518 
173.000000	  -0.000060 
174.000000	  0.000427  
175.000000	  0.000407  
176.000000	  0.000100  
177.000000	  0.000016  
178.000000	  -0.000024 
179.000000	  -0.000317 
180.000000	  -0.000480 
181.000000	  -0.000162 
182.000000	  0.000357  
183.000000	  0.000466  
184.000000	  0.000071  
185.000000	  -0.000270 
186.000000	  -0.000206 
187.000000	  -0.000014 
188.000000	  0.000098  
189.000000	  0.000224  
190.000000	  0.000193  
191.000000	  -0.000159 
192.000000	  -0.000539 
193.000000	  -0.000414 
194.000000	  0.000206  
195.000000	  0.000649  
196.000000	  0.000389  
197.000000	  -0.000109 
198.000000	  -0.000197 
199.000000	  -0.000018 
200.000000	  -0.000009 
201.000000	  -0.000107 
202.000000	  -0.000043 
203.000000	  0.000137  
204.000000	  0.000113  
205.000000	  -0.000115 
206.000000	  -0.000142 
207.000000	  0.000059  
208.000000	  0.000044  
209.000000	  -0.000208 
210.000000	  -0.000271 
211.000000	  -0.000067 
212.000000	  0.000050  
213.000000	  -0.000033 
214.000000	  0.000036  
215.000000	  0.000436  
216.000000	  0.000634  
217.000000	  0.000172  
218.000000	  -0.000440 
219.000000	  -0.000479 
220.000000	  -0.000101 
221.000000	  0.000118  
222.000000	  0.000074  
223.000000	  0.000067  
224.000000	  0.000152  
225.000000	  0.000044  
226.000000	  -0.000169 
227.000000	  -0.000130 
228.000000	  0.000112  
229.000000	  -0.000005 
230.000000	  -0.000377 
231.000000	  -0.000404 
232.000000	  0.000073  
233.000000	  0.000447  
234.000000	  0.000303  
235.000000	  0.000007  
236.000000	  0.000034  
237.000000	  0.000146  
238.000000	  -0.000093 
239.000000	  -0.000317 
240.000000	  -0.000160 
241.000000	  0.000183  
242.000000	  0.000202  
243.000000	  -0.000022 
244.000000	  -0.000039 
245.000000	  0.000145  
246.000000	  0.000108  
247.000000	  -0.000180 
248.000000	  -0.000209 
249.000000	  0.000020  
250.000000	  0.000039  
251.000000	  -0.000256 
252.000000	  -0.000276 
253.000000	  0.000162  
254.000000	  0.000563  
255.000000	  0.000361  
256.000000	  -0.000146 
257.000000	  -0.000298 
258.000000	  -0.000157 
259.000000	  -0.000087 
260.000000	  -0.000097 
261.000000	  0.000050  
262.000000	  0.000230  
263.000000	  0.000148  
264.000000	  -0.000139 
265.000000	  -0.000155 
266.000000	  0.000133  
267.000000	  0.000232  
268.000000	  -0.000110 
269.000000	  -0.000395 
270.000000	  -0.000284 
271.000000	  -0.000004 
272.000000	  0.000095  
273.000000	  0.000118  
274.000000	  0.000309  
275.000000	  0.000460  
276.000000	  0.000223  
277.000000	  -0.000238 
278.000000	  -0.000389 
279.000000	  -0.000188 
280.000000	  -0.000004 
281.000000	  -0.000009 
282.000000	  -0.000033 
283.000000	  0.000009  
284.000000	  0.000005  
285.000000	  -0.000082 
286.000000	  -0.000004 
287.000000	  0.000259  
288.000000	  0.000324  
289.000000	  0.000002  
290.000000	  -0.000359 
291.000000	  -0.000346 
292.000000	  -0.000019 
293.000000	  0.000248  
294.000000	  0.000289  
295.000000	  0.000221  
296.000000	  0.000090  
297.000000	  -0.000118 
298.000000	  -0.000232 
299.000000	  -0.000138 
300.000000	  0.000026  
301.000000	  0.000021  
302.000000	  -0.000158 
303.000000	  -0.000238 
304.000000	  -0.000103 
305.000000	  0.000059  
306.000000	  0.000165  
307.000000	  0.000315  
308.000000	  0.000400  
309.000000	  0.000198  
310.000000	  -0.000217 
311.000000	  -0.000490 
312.000000	  -0.000422 
313.000000	  -0.000100 
314.000000	  0.000135  
315.000000	  0.000246  
316.000000	  0.000287  
317.000000	  0.000186  
318.000000	  0.000004  
319.000000	  0.000003  
320.000000	  0.000100  
321.000000	  0.000041  
322.000000	  -0.000256 
323.000000	  -0.000533 
324.000000	  -0.000429 
325.000000	  -0.000021 
326.000000	  0.000295  
327.000000	  0.000439  
328.000000	  0.000485  
329.000000	  0.000294  
330.000000	  -0.000115 
331.000000	  -0.000445 
332.000000	  -0.000441 
333.000000	  -0.000142 
334.000000	  0.000153  
335.000000	  0.000228  
336.000000	  0.000204  
337.000000	  0.000161  
338.000000	  -0.000007 
339.000000	  -0.000140 
340.000000	  -0.000094 
341.000000	  -0.000004 
342.000000	  -0.000070 
343.000000	  -0.000231 
344.000000	  -0.000277 
345.000000	  -0.000022 
346.000000	  0.000291  
347.000000	  0.000359  
348.000000	  0.000235  
349.000000	  0.000053  
350.000000	  -0.000174 
351.000000	  -0.000302 
352.000000	  -0.000169 
353.000000	  0.000077  
354.000000	  0.000327  
355.000000	  0.000310  
356.000000	  0.000051  
357.000000	  -0.000222 
358.000000	  -0.000342 
359.000000	  -0.000312 
360.000000	  -0.000093 
361.000000	  0.000163  
362.000000	  0.000243  
363.000000	  0.000141  
364.000000	  0.000006  
365.000000	  -0.000051 
366.000000	  0.000008  
367.000000	  0.000075  
368.000000	  0.000030  
369.000000	  -0.000077 
370.000000	  -0.000168 
371.000000	  -0.000145 
372.000000	  0.000038  
373.000000	  0.000263  
374.000000	  0.000277  
375.000000	  0.000100  
376.000000	  -0.000125 
377.000000	  -0.000283 
378.000000	  -0.000310 
379.000000	  -0.000188 
380.000000	  0.000038  
381.000000	  0.000277  
382.000000	  0.000344  
383.000000	  0.000152  
384.000000	  -0.000081 
385.000000	  -0.000170 
386.000000	  -0.000118 
387.000000	  0.000007  
388.000000	  0.000072  
389.000000	  0.000003  
390.000000	  -0.000104 
391.000000	  -0.000155 
392.000000	  -0.000067 
393.000000	  0.000149  
394.000000	  0.000282  
395.000000	  0.000196  
396.000000	  -0.000020 
397.000000	  -0.000195 
398.000000	  -0.000252 
399.000000	  -0.000155 
400.000000	  0.000011  
401.000000	  0.000116  
402.000000	  0.000113  
403.000000	  0.000054  
404.000000	  0.000037  
405.000000	  0.000067  
406.000000	  0.000057  
407.000000	  -0.000013 
408.000000	  -0.000018 
409.000000	  -0.000036 
410.000000	  -0.000133 
411.000000	  -0.000196 
412.000000	  -0.000083 
413.000000	  0.000179  
414.000000	  0.000351  
415.000000	  0.000225  
416.000000	  -0.000056 
417.000000	  -0.000253 
418.000000	  -0.000336 
419.000000	  -0.000292 
420.000000	  -0.000035 
421.000000	  0.000265  
422.000000	  0.000354  
423.000000	  0.000172  
424.000000	  -0.000055 
425.000000	  -0.000054 
426.000000	  0.000052  
427.000000	  0.000048  
428.000000	  -0.000067 
429.000000	  -0.000111 
430.000000	  -0.000092 
431.000000	  -0.000096 
432.000000	  -0.000092 
433.000000	  0.000044  
434.000000	  0.000183  
435.000000	  0.000156  
436.000000	  -0.000042 
437.000000	  -0.000165 
438.000000	  -0.000113 
439.000000	  -0.000039 
440.000000	  0.000000  
441.000000	  0.000057  
442.000000	  0.000131  
443.000000	  0.000091  
444.000000	  -0.000042 
445.000000	  -0.000131 
446.000000	  -0.000009 
447.000000	  0.000151  
448.000000	  0.000144  
449.000000	  -0.000028 
450.000000	  -0.000189 
451.000000	  -0.000219 
452.000000	  -0.000117 
453.000000	  0.000051  
454.000000	  0.000208  
455.000000	  0.000278  
456.000000	  0.000152  
457.000000	  -0.000071 
458.000000	  -0.000183 
459.000000	  -0.000113 
460.000000	  0.000008  
461.000000	  0.000036  
462.000000	  -0.000012 
463.000000	  -0.000053 
464.000000	  0.000001  
465.000000	  0.000049  
466.000000	  0.000063  
467.000000	  0.000070  
468.000000	  0.000092  
469.000000	  0.000051  
470.000000	  -0.000072 
471.000000	  -0.000179 
472.000000	  -0.000133 
473.000000	  0.000042  
474.000000	  0.000121  
475.000000	  0.000074  
476.000000	  0.000017  
477.000000	  -0.000042 
478.000000	  -0.000120 
479.000000	  -0.000162 
480.000000	  -0.000049 
481.000000	  0.000207  
482.000000	  0.000261  
483.000000	  -0.000008 
484.000000	  -0.000266 
485.000000	  -0.000185 
486.000000	  0.000029  
487.000000	  0.000099  
488.000000	  0.000048  
489.000000	  0.000079  
490.000000	  0.000194  
491.000000	  0.000122  
492.000000	  -0.000102 
493.000000	  -0.000153 
494.000000	  -0.000039 
495.000000	  -0.000086 
496.000000	  -0.000296 
497.000000	  -0.000279 
498.000000	  0.000070  
499.000000	  0.000390  
500.000000	  0.000334  
501.000000	  0.000183  
502.000000	  0.000190  
503.000000	  0.000137  
504.000000	  -0.000280 
505.000000	  -0.000621 
506.000000	  -0.000426 
507.000000	  0.000114  
508.000000	  0.000371  
509.000000	  0.000229  
510.000000	  0.000138  
511.000000	  0.000225  
512.000000	  0.000110  
513.000000	  -0.000240 
514.000000	  -0.000357 
515.000000	  -0.000123 
516.000000	  0.000023  
517.000000	  -0.000102 
518.000000	  -0.000171 
519.000000	  0.000134  
520.000000	  0.000423  
521.000000	  0.000222  
522.000000	  -0.000160 
523.000000	  -0.000200 
524.000000	  -0.000014 
525.000000	  -0.000007 
526.000000	  -0.000136 
527.000000	  -0.000053 
528.000000	  0.000232  
529.000000	  0.000262  
530.000000	  -0.000055 
531.000000	  -0.000262 
532.000000	  -0.000090 
533.000000	  0.000106  
534.000000	  0.000096  
535.000000	  0.000014  
536.000000	  0.000077  
537.000000	  0.000162  
538.000000	  -0.000014 
539.000000	  -0.000304 
540.000000	  -0.000294 
541.000000	  -0.000003 
542.000000	  0.000154  
543.000000	  0.000065  
544.000000	  -0.000018 
545.000000	  0.000131  
546.000000	  0.000317  
547.000000	  0.000218  
548.000000	  -0.000107 
549.000000	  -0.000255 
550.000000	  -0.000195 
551.000000	  -0.000158 
552.000000	  -0.000208 
553.000000	  -0.000127 
554.000000	  0.000164  
555.000000	  0.000378  
556.000000	  0.000248  
557.000000	  -0.000044 
558.000000	  -0.000101 
559.000000	  -0.000018 
560.000000	  -0.000040 
561.000000	  -0.000163 
562.000000	  -0.000151 
563.000000	  0.000061  
564.000000	  0.000180  
565.000000	  0.000047  
566.000000	  -0.000050 
567.000000	  0.000080  
568.000000	  0.000171  
569.000000	  0.000025  
570.000000	  -0.000219 
571.000000	  -0.000262 
572.000000	  -0.000092 
573.000000	  0.000015  
574.000000	  -0.000010 
575.000000	  0.000040  
576.000000	  0.000185  
577.000000	  0.000207  
578.000000	  0.000056  
579.000000	  -0.000053 
580.000000	  -0.000011 
581.000000	  0.000069  
582.000000	  -0.000014 
583.000000	  -0.000130 
584.000000	  -0.000124 
585.000000	  0.000000  
586.000000	  0.000059  
587.000000	  0.000013  
588.000000	  -0.000022 
589.000000	  0.000015  
590.000000	  0.000026  
591.000000	  -0.000038 
592.000000	  -0.000067 
593.000000	  0.000006  
594.000000	  0.000110  
595.000000	  0.000104  
596.000000	  -0.000030 
597.000000	  -0.000125 
598.000000	  -0.000057 
599.000000	  0.000021  
600.000000	  -0.000006 
601.000000	  -0.000017 
602.000000	  0.000104  
603.000000	  0.000220  
604.000000	  0.000105  
605.000000	  -0.000131 
606.000000	  -0.000143 
607.000000	  0.000057  
608.000000	  0.000086  
609.000000	  -0.000124 
610.000000	  -0.000206 
611.000000	  -0.000052 
612.000000	  0.000050  
613.000000	  -0.000070 
614.000000	  -0.000130 
615.000000	  0.000125  
616.000000	  0.000351  
617.000000	  0.000163  
618.000000	  -0.000117 
619.000000	  -0.000089 
620.000000	  0.000049  
621.000000	  -0.000090 
622.000000	  -0.000332 
623.000000	  -0.000199 
624.000000	  0.000214  
625.000000	  0.000347  
626.000000	  0.000102  
627.000000	  -0.000025 
628.000000	  0.000066  
629.000000	  -0.000027 
630.000000	  -0.000361 
631.000000	  -0.000457 
632.000000	  -0.000103 
633.000000	  0.000292  
634.000000	  0.000322  
635.000000	  0.000198  
636.000000	  0.000205  
637.000000	  0.000133  
638.000000	  -0.000172 
639.000000	  -0.000420 
640.000000	  -0.000244 
641.000000	  0.000123  
642.000000	  0.000277  
643.000000	  0.000189  
644.000000	  0.000106  
645.000000	  0.000056  
646.000000	  -0.000115 
647.000000	  -0.000307 
648.000000	  -0.000255 
649.000000	  0.000016  
650.000000	  0.000224  
651.000000	  0.000267  
652.000000	  0.000234  
653.000000	  0.000145  
654.000000	  -0.000049 
655.000000	  -0.000274 
656.000000	  -0.000315 
657.000000	  -0.000187 
658.000000	  -0.000001 
659.000000	  0.000144  
660.000000	  0.000215  
661.000000	  0.000211  
662.000000	  0.000059  
663.000000	  -0.000145 
664.000000	  -0.000265 
665.000000	  -0.000233 
666.000000	  -0.000148 
667.000000	  0.000015  
668.000000	  0.000203  
669.000000	  0.000286  
670.000000	  0.000180  
671.000000	  -0.000006 
672.000000	  -0.000148 
673.000000	  -0.000195 
674.000000	  -0.000175 
675.000000	  -0.000093 
676.000000	  0.000075  
677.000000	  0.000188  
678.000000	  0.000157  
679.000000	  0.000077  
680.000000	  0.000056  
681.000000	  -0.000018 
682.000000	  -0.000104 
683.000000	  -0.000149 
684.000000	  -0.000087 
685.000000	  -0.000022 
686.000000	  -0.000025 
687.000000	  0.000013  
688.000000	  0.000110  
689.000000	  0.000184  
690.000000	  0.000102  
691.000000	  0.000019  
692.000000	  0.000020  
693.000000	  -0.000008 
694.000000	  -0.000123 
695.000000	  -0.000195 
696.000000	  -0.000043 
697.000000	  0.000104  
698.000000	  0.000131  
699.000000	  0.000054  
700.000000	  0.000075  
701.000000	  0.000141  
702.000000	  0.000039  
703.000000	  -0.000167 
704.000000	  -0.000268 
705.000000	  -0.000221 
706.000000	  -0.000168 
707.000000	  -0.000096 
708.000000	  0.000046  
709.000000	  0.000244  
710.000000	  0.000328  
711.000000	  0.000225  
712.000000	  0.000003  
713.000000	  -0.000128 
714.000000	  -0.000163 
715.000000	  -0.000184 
716.000000	  -0.000169 
717.000000	  -0.000081 
718.000000	  0.000097  
719.000000	  0.000277  
720.000000	  0.000240  
721.000000	  0.000012  
722.000000	  -0.000101 
723.000000	  -0.000030 
724.000000	  -0.000015 
725.000000	  -0.000163 
726.000000	  -0.000238 
727.000000	  -0.000016 
728.000000	  0.000266  
729.000000	  0.000237  
730.000000	  -0.000027 
731.000000	  -0.000020 
732.000000	  0.000147  
733.000000	  0.000007  
734.000000	  -0.000336 
735.000000	  -0.000286 
736.000000	  0.000168  
737.000000	  0.000347  
738.000000	  0.000018  
739.000000	  -0.000227 
740.000000	  0.000082  
741.000000	  0.000340  
742.000000	  -0.000031 
743.000000	  -0.000423 
744.000000	  -0.000118 
745.000000	  0.000344  
746.000000	  0.000151  
747.000000	  -0.000370 
748.000000	  -0.000341 
749.000000	  0.000239  
750.000000	  0.000372  
751.000000	  -0.000156 
752.000000	  -0.000323 
753.000000	  0.000182  
754.000000	  0.000397  
755.000000	  -0.000100 
756.000000	  -0.000471 
757.000000	  -0.000116 
758.000000	  0.000341  
759.000000	  0.000127  
760.000000	  -0.000339 
761.000000	  -0.000122 
762.000000	  0.000478  
763.000000	  0.000420  
764.000000	  -0.000160 
765.000000	  -0.000339 
766.000000	  -0.000015 
767.000000	  0.000107  
768.000000	  -0.000218 
769.000000	  -0.000364 
770.000000	  0.000090  
771.000000	  0.000561  
772.000000	  0.000346  
773.000000	  -0.000083 
774.000000	  -0.000107 
775.000000	  0.000080  
776.000000	  -0.000017 
777.000000	  -0.000340 
778.000000	  -0.000434 
779.000000	  -0.000096 
780.000000	  0.000188  
781.000000	  0.000068  
782.000000	  -0.000016 
783.000000	  0.000182  
784.000000	  0.000388  
785.000000	  0.000252  
786.000000	  -0.000127 
787.000000	  -0.000366 
788.000000	  -0.000248 
789.000000	  -0.000108 
790.000000	  -0.000179 
791.000000	  -0.000137 
792.000000	  0.000198  
793.000000	  0.000466  
794.000000	  0.000386  
795.000000	  0.000072  
796.000000	  -0.000102 
797.000000	  -0.000081 
798.000000	  -0.000203 
799.000000	  -0.000502 
800.000000	  -0.000491 
801.000000	  -0.000018 
802.000000	  0.000408  
803.000000	  0.000448  
804.000000	  0.000301  
805.000000	  0.000252  
806.000000	  0.000176  
807.000000	  -0.000195 
808.000000	  -0.000597 
809.000000	  -0.000523 
810.000000	  -0.000055 
811.000000	  0.000256  
812.000000	  0.000253  
813.000000	  0.000249  
814.000000	  0.000324  
815.000000	  0.000183  
816.000000	  -0.000178 
817.000000	  -0.000387 
818.000000	  -0.000217 
819.000000	  0.000027  
820.000000	  0.000014  
821.000000	  -0.000059 
822.000000	  0.000104  
823.000000	  0.000243  
824.000000	  0.000014  
825.000000	  -0.000288 
826.000000	  -0.000277 
827.000000	  -0.000002 
828.000000	  0.000140  
829.000000	  0.000088  
830.000000	  0.000126  
831.000000	  0.000319  
832.000000	  0.000205  
833.000000	  -0.000239 
834.000000	  -0.000465 
835.000000	  -0.000231 
836.000000	  0.000047  
837.000000	  0.000098  
838.000000	  0.000097  
839.000000	  0.000283  
840.000000	  0.000387  
841.000000	  0.000061  
842.000000	  -0.000382 
843.000000	  -0.000355 
844.000000	  -0.000047 
845.000000	  0.000021  
846.000000	  -0.000077 
847.000000	  0.000005  
848.000000	  0.000271  
849.000000	  0.000309  
850.000000	  -0.000010 
851.000000	  -0.000205 
852.000000	  -0.000003 
853.000000	  0.000107  
854.000000	  -0.000106 
855.000000	  -0.000196 
856.000000	  0.000044  
857.000000	  0.000232  
858.000000	  0.000026  
859.000000	  -0.000289 
860.000000	  -0.000204 
861.000000	  0.000171  
862.000000	  0.000220  
863.000000	  0.000040  
864.000000	  0.000113  
865.000000	  0.000299  
866.000000	  0.000114  
867.000000	  -0.000406 
868.000000	  -0.000627 
869.000000	  -0.000303 
870.000000	  0.000101  
871.000000	  0.000132  
872.000000	  0.000178  
873.000000	  0.000472  
874.000000	  0.000542  
875.000000	  0.000062  
876.000000	  -0.000452 
877.000000	  -0.000489 
878.000000	  -0.000258 
879.000000	  -0.000219 
880.000000	  -0.000239 
881.000000	  0.000132  
882.000000	  0.000653  
883.000000	  0.000670  
884.000000	  0.000217  
885.000000	  -0.000101 
886.000000	  -0.000198 
887.000000	  -0.000397 
888.000000	  -0.000656 
889.000000	  -0.000503 
890.000000	  0.000096  
891.000000	  0.000545  
892.000000	  0.000512  
893.000000	  0.000349  
894.000000	  0.000295  
895.000000	  0.000043  
896.000000	  -0.000419 
897.000000	  -0.000655 
898.000000	  -0.000431 
899.000000	  -0.000125 
900.000000	  -0.000000 
901.000000	  0.000149  
902.000000	  0.000496  
903.000000	  0.000626  
904.000000	  0.000323  
905.000000	  -0.000066 
906.000000	  -0.000225 
907.000000	  -0.000308 
908.000000	  -0.000472 
909.000000	  -0.000430 
910.000000	  0.000011  
911.000000	  0.000422  
912.000000	  0.000393  
913.000000	  0.000218  
914.000000	  0.000194  
915.000000	  0.000093  
916.000000	  -0.000259 
917.000000	  -0.000496 
918.000000	  -0.000267 
919.000000	  0.000071  
920.000000	  0.000025  
921.000000	  -0.000128 
922.000000	  0.000114  
923.000000	  0.000453  
924.000000	  0.000285  
925.000000	  -0.000125 
926.000000	  -0.000135 
927.000000	  0.000096  
928.000000	  0.000009  
929.000000	  -0.000334 
930.000000	  -0.000292 
931.000000	  0.000147  
932.000000	  0.000220  
933.000000	  -0.000131 
934.000000	  -0.000186 
935.000000	  0.000187  
936.000000	  0.000335  
937.000000	  0.000041  
938.000000	  -0.000165 
939.000000	  0.000056  
940.000000	  0.000139  
941.000000	  -0.000283 
942.000000	  -0.000562 
943.000000	  -0.000183 
944.000000	  0.000268  
945.000000	  0.000247  
946.000000	  0.000104  
947.000000	  0.000249  
948.000000	  0.000405  
949.000000	  0.000118  
950.000000	  -0.000337 
951.000000	  -0.000376 
952.000000	  -0.000138 
953.000000	  -0.000170 
954.000000	  -0.000262 
955.000000	  0.000036  
956.000000	  0.000470  
957.000000	  0.000529  
958.000000	  0.000237  
959.000000	  0.000035  
960.000000	  -0.000040 
961.000000	  -0.000336 
962.000000	  -0.000697 
963.000000	  -0.000553 
964.000000	  0.000013  
965.000000	  0.000357  
966.000000	  0.000379  
967.000000	  0.000419  
968.000000	  0.000485  
969.000000	  0.000206  
970.000000	  -0.000373 
971.000000	  -0.000647 
972.000000	  -0.000435 
973.000000	  -0.000207 
974.000000	  -0.000160 
975.000000	  0.000128  
976.000000	  0.000623  
977.000000	  0.000740  
978.000000	  0.000304  
979.000000	  -0.000170 
980.000000	  -0.000290 
981.000000	  -0.000383 
982.000000	  -0.000617 
983.000000	  -0.000511 
984.000000	  0.000181  
985.000000	  0.000733  
986.000000	  0.000625  
987.000000	  0.000228  
988.000000	  0.000051  
989.000000	  -0.000076 
990.000000	  -0.000482 
991.000000	  -0.000766 
992.000000	  -0.000427 
993.000000	  0.000207  
994.000000	  0.000433  
995.000000	  0.000354  
996.000000	  0.000372  
997.000000	  0.000406  
998.000000	  0.000076  
999.000000	  -0.000443 
1000.000000	 -0.000589 

