V[ml],p [10^5 Pa]
4,8
3.8,8.5
3.6,9
3.4,9.5
3.2,10
3,10.75
2.8,11.5
2.6,12.25
2.5,12.75
2.4,13.25
2.3,14
2.2,14.5
2.1,15
2,15.75
1.9,16.5
1.8,17.5
1.7,18.25
1.6,19
1.5,20.25
1.4,21.5
1.3,22.5
1.2,24
1.1,25.5
1,27
0.9,29
0.8,30.5
0.7,32.5
0.6,33.5
0.5,34
0.45,34
0.4,34.25
0.35,35
0.3,38